##     time(fs)           T                  T-T0               U                  U-U0               E                  E-E0
       0.0000000000       0.4010629160       0.0000000000    -844.2134784063       0.0000000000    -843.8124154902       0.0000000000
       0.0500000000       0.4021566856       0.0010937695    -844.2145900436      -0.0011116374    -843.8124333581      -0.0000178678
       0.1000000000       0.4033222943       0.0022593782    -844.2157588926      -0.0022804864    -843.8124365984      -0.0000211081
       0.1500000000       0.4045528533       0.0034899372    -844.2169935311      -0.0035151248    -843.8124406778      -0.0000251875
       0.2000000000       0.4058403440       0.0047774279    -844.2182848410      -0.0048064347    -843.8124444970      -0.0000290067
       0.2500000000       0.4071785569       0.0061156409    -844.2196265268      -0.0061481206    -843.8124479699      -0.0000324797
       0.3000000000       0.4086047662       0.0075418502    -844.2210253092      -0.0075469030    -843.8124205430      -0.0000050528
       0.3500000000       0.4100672023       0.0090042863    -844.2224588041      -0.0089803979    -843.8123916018       0.0000238884
       0.4000000000       0.4115064024       0.0104434864    -844.2238994544      -0.0104210481    -843.8123930520       0.0000224383
       0.4500000000       0.4129555573       0.0118926413    -844.2253515476      -0.0118731413    -843.8123959903       0.0000195000
       0.5000000000       0.4144098850       0.0133469690    -844.2268092995      -0.0133308933    -843.8123994146       0.0000160757
       0.5500000000       0.4158628409       0.0147999249    -844.2282656370      -0.0147872308    -843.8124027961       0.0000126941
       0.6000000000       0.4173075987       0.0162446826    -844.2297139712      -0.0162355649    -843.8124063725       0.0000091177
       0.6500000000       0.4187373282       0.0176744122    -844.2311471175      -0.0176687113    -843.8124097893       0.0000057009
       0.7000000000       0.4201452704       0.0190823544    -844.2325586095      -0.0190802032    -843.8124133391       0.0000021511
       0.7500000000       0.4215248286       0.0204619126    -844.2339415398      -0.0204631335    -843.8124167112      -0.0000012209
       0.8000000000       0.4228695822       0.0218066662    -844.2352897875      -0.0218113812    -843.8124202052      -0.0000047150
       0.8500000000       0.4241733527       0.0231104366    -844.2365968270      -0.0231184207    -843.8124234743      -0.0000079841
       0.9000000000       0.4254300913       0.0243671753    -844.2378569459      -0.0243785396    -843.8124268546      -0.0000113643
       0.9500000000       0.4266340055       0.0255710895    -844.2390640576      -0.0255856513    -843.8124300521      -0.0000145618
       1.0000000000       0.4277795306       0.0267166146    -844.2402128905      -0.0267344843    -843.8124333599      -0.0000178697
       1.0500000000       0.4288613277       0.0277984116    -844.2412978108      -0.0278194045    -843.8124364831      -0.0000209929
       1.1000000000       0.4298742915       0.0288113755    -844.2423124857      -0.0288340794    -843.8124381941      -0.0000227039
       1.1500000000       0.4308135476       0.0297506316    -844.2432549137      -0.0297765074    -843.8124413661      -0.0000258758
       1.2000000000       0.4316744562       0.0306115402    -844.2441191011      -0.0306406949    -843.8124446449      -0.0000291547
       1.2500000000       0.4324526128       0.0313896968    -844.2449003572      -0.0314219509    -843.8124477444      -0.0000322541
       1.3000000000       0.4331438432       0.0320809272    -844.2455947820      -0.0321163758    -843.8124509389      -0.0000354486
       1.3500000000       0.4337442083       0.0326812922    -844.2461981707      -0.0327197645    -843.8124539625      -0.0000384722
       1.4000000000       0.4342499965       0.0331870805    -844.2467070132      -0.0332286069    -843.8124570167      -0.0000415264
       1.4500000000       0.4346577385       0.0335948225    -844.2471177848      -0.0336393785    -843.8124600463      -0.0000445560
       1.5000000000       0.4349642154       0.0339012994    -844.2474273156      -0.0339489093    -843.8124631002      -0.0000476099
       1.5500000000       0.4351664223       0.0341035063    -844.2476324039      -0.0341539976    -843.8124659816      -0.0000504914
       1.6000000000       0.4352615857       0.0341986696    -844.2477304883      -0.0342520820    -843.8124689026      -0.0000534124
       1.6500000000       0.4352471993       0.0341842833    -844.2477189876      -0.0342405813    -843.8124717883      -0.0000562981
       1.7000000000       0.4351209862       0.0340580702    -844.2475956234      -0.0341172172    -843.8124746372      -0.0000591470
       1.7500000000       0.4348809162       0.0338180001    -844.2473583663      -0.0338799601    -843.8124774502      -0.0000619600
       1.8000000000       0.4345252096       0.0334622936    -844.2470054379      -0.0335270316    -843.8124802283      -0.0000647381
       1.8500000000       0.4340523434       0.0329894273    -844.2465353126      -0.0330569063    -843.8124829692      -0.0000674790
       1.9000000000       0.4334610564       0.0323981404    -844.2459467325      -0.0324683262    -843.8124856761      -0.0000701858
       1.9500000000       0.4327503568       0.0316874407    -844.2452387030      -0.0317602967    -843.8124883462      -0.0000728560
       2.0000000000       0.4319195296       0.0308566136    -844.2444105161      -0.0309321098    -843.8124909865      -0.0000754963
       2.0500000000       0.4309681458       0.0299052297    -844.2434617395      -0.0299833333    -843.8124935938      -0.0000781035
       2.1000000000       0.4298960712       0.0288331552    -844.2423922400      -0.0289138337    -843.8124961688      -0.0000806786
       2.1500000000       0.4287034773       0.0276405613    -844.2412021893      -0.0277237830    -843.8124987119      -0.0000832217
       2.2000000000       0.4273908395       0.0263279234    -844.2398920794      -0.0264136731    -843.8125012399      -0.0000857497
       2.2500000000       0.4259589739       0.0248960579    -844.2384627216      -0.0249843153    -843.8125037476      -0.0000882574
       2.3000000000       0.4244090492       0.0233461332    -844.2369152779      -0.0234368716    -843.8125062286      -0.0000907384
       2.3500000000       0.4227425732       0.0216796572    -844.2352512553      -0.0217728490    -843.8125086821      -0.0000931919
       2.4000000000       0.4209614190       0.0198985030    -844.2334725290      -0.0199941227    -843.8125111100      -0.0000956197
       2.4500000000       0.4190678381       0.0180049221    -844.2315813498      -0.0181029435    -843.8125135117      -0.0000980215
       2.5000000000       0.4170644721       0.0160015561    -844.2295788594      -0.0161004531    -843.8125143872      -0.0000988970
       2.5500000000       0.4149543663       0.0138914502    -844.2274710086      -0.0139926023    -843.8125166423      -0.0001011521
       2.6000000000       0.4127409808       0.0116780648    -844.2252598586      -0.0117814523    -843.8125188778      -0.0001033876
       2.6500000000       0.4104282002       0.0093652841    -844.2229492929      -0.0094708867    -843.8125210928      -0.0001056025
       2.7000000000       0.4080203466       0.0069574306    -844.2205436587      -0.0070652524    -843.8125233121      -0.0001078218
       2.7500000000       0.4055221930       0.0044592770    -844.2180476880      -0.0045692818    -843.8125254950      -0.0001100048
       2.8000000000       0.4029389671       0.0018760511    -844.2154666303      -0.0019882240    -843.8125276632      -0.0001121730
       2.8500000000       0.4002763621      -0.0007865540    -844.2128061720       0.0006722343    -843.8125298099      -0.0001143197
       2.9000000000       0.3975405331      -0.0035223829    -844.2100724673       0.0034059390    -843.8125319342      -0.0001164439
       2.9500000000       0.3947380968      -0.0063248193    -844.2072721425       0.0062062638    -843.8125340457      -0.0001185554
       3.0000000000       0.3918761463      -0.0091867698    -844.2044122906       0.0090661157    -843.8125361443      -0.0001206541
       3.0500000000       0.3889622475      -0.0121006685    -844.2015004781       0.0119779282    -843.8125382305      -0.0001227403
       3.1000000000       0.3860044227      -0.0150584933    -844.1985447267       0.0149336795    -843.8125403040      -0.0001248138
       3.1500000000       0.3830111537      -0.0180517624    -844.1955535130       0.0179248932    -843.8125423594      -0.0001268691
       3.2000000000       0.3799913766      -0.0210715395    -844.1925357912       0.0209426151    -843.8125444146      -0.0001289243
       3.2500000000       0.3769544573      -0.0241084588    -844.1895009180       0.0239774883    -843.8125464607      -0.0001309705
       3.3000000000       0.3739101772      -0.0271527388    -844.1864586762       0.0270197300    -843.8125484990      -0.0001330088
       3.3500000000       0.3708687151      -0.0301942009    -844.1834192440       0.0300591623    -843.8125505289      -0.0001350386
       3.4000000000       0.3678397660      -0.0332231500    -844.1803931780       0.0330852283    -843.8125534120      -0.0001379218
       3.4500000000       0.3648342508      -0.0362286652    -844.1773913895       0.0360870168    -843.8125571387      -0.0001416484
       3.5000000000       0.3618642548      -0.0391986612    -844.1744250961       0.0390533102    -843.8125608413      -0.0001453510
       3.5500000000       0.3589412743      -0.0421216417    -844.1715057974       0.0419726089    -843.8125645231      -0.0001490329
       3.6000000000       0.3560770368      -0.0449858792    -844.1686452359       0.0448331704    -843.8125681991      -0.0001527088
       3.6500000000       0.3532834857      -0.0477794303    -844.1658553578       0.0476230484    -843.8125718721      -0.0001563818
       3.7000000000       0.3505735813      -0.0504893347    -844.1631482650       0.0503301413    -843.8125746836      -0.0001591934
       3.7500000000       0.3479595172      -0.0531033988    -844.1605361672       0.0529422391    -843.8125766500      -0.0001611597
       3.8000000000       0.3454527026      -0.0556102134    -844.1580313271       0.0554470792    -843.8125786245      -0.0001631342
       3.8500000000       0.3430653931      -0.0579975229    -844.1556460188       0.0578323874    -843.8125806257      -0.0001651354
       3.9000000000       0.3408096071      -0.0602533089    -844.1533924666       0.0600859396    -843.8125828595      -0.0001673693
       3.9500000000       0.3386976513      -0.0623652648    -844.1512827632       0.0621956431    -843.8125851120      -0.0001696217
       4.0000000000       0.3367407809      -0.0643221352    -844.1493288590       0.0641495473    -843.8125880781      -0.0001725879
       4.0500000000       0.3349513595      -0.0661115565    -844.1475424545       0.0659359518    -843.8125910950      -0.0001756048
       4.1000000000       0.3333407899      -0.0677221261    -844.1459349441       0.0675434622    -843.8125941542      -0.0001786640
       4.1500000000       0.3319192709      -0.0691436451    -844.1445173708       0.0689610354    -843.8125980999      -0.0001826097
       4.2000000000       0.3306982657      -0.0703646503    -844.1433003384       0.0701780679    -843.8126020726      -0.0001865824
       4.2500000000       0.3296878690      -0.0713750470    -844.1422939602       0.0711844461    -843.8126060912      -0.0001906009
       4.3000000000       0.3288976280      -0.0721652880    -844.1415077946       0.0719706117    -843.8126101665      -0.0001946763
       4.3500000000       0.3283364706      -0.0727264454    -844.1409507654       0.0725276408    -843.8126142948      -0.0001988046
       4.4000000000       0.3280126383      -0.0730502777    -844.1406311271       0.0728472791    -843.8126184888      -0.0002029986
       4.4500000000       0.3279336269      -0.0731292891    -844.1405563783       0.0729220280    -843.8126227514      -0.0002072611
       4.5000000000       0.3281061345      -0.0729567815    -844.1407332271       0.0727451791    -843.8126270926      -0.0002116023
       4.5500000000       0.3285360017      -0.0725269143    -844.1411675177       0.0723108886    -843.8126315160      -0.0002160257
       4.6000000000       0.3292281663      -0.0718347497    -844.1418641958       0.0716142105    -843.8126360294      -0.0002205392
       4.6500000000       0.3301866142      -0.0708763019    -844.1428272498       0.0706511564    -843.8126406357      -0.0002251454
       4.7000000000       0.3314143352      -0.0696485808    -844.1440596782       0.0694187280    -843.8126453430      -0.0002298527
       4.7500000000       0.3329132919      -0.0681496241    -844.1455634472       0.0679149590    -843.8126501553      -0.0002346651
       4.8000000000       0.3346843817      -0.0663785343    -844.1473394611       0.0661389452    -843.8126550794      -0.0002395892
       4.8500000000       0.3367274165      -0.0643354995    -844.1493875347       0.0640908715    -843.8126601182      -0.0002446280
       4.9000000000       0.3390411014      -0.0620218147    -844.1517063741       0.0617720322    -843.8126652727      -0.0002497825
       4.9500000000       0.3416230206      -0.0594398954    -844.1542935638       0.0591848424    -843.8126705432      -0.0002550530
       5.0000000000       0.3444705473      -0.0565923687    -844.1571455540       0.0563328522    -843.8126750068      -0.0002595165
       5.0500000000       0.3475780755      -0.0534848405    -844.1602576726       0.0532207337    -843.8126795970      -0.0002641068
       5.1000000000       0.3509398101      -0.0501231059    -844.1636241136       0.0498542926    -843.8126843035      -0.0002688132
       5.1500000000       0.3545497755      -0.0465131405    -844.1672379551       0.0462404512    -843.8126881796      -0.0002726893
       5.2000000000       0.3583981436      -0.0426647724    -844.1710911926       0.0423872136    -843.8126930490      -0.0002775588
       5.2500000000       0.3624758169      -0.0385870991    -844.1751747266       0.0383036797    -843.8126989097      -0.0002834194
       5.3000000000       0.3667735438      -0.0342893722    -844.1794784442       0.0339999621    -843.8127049004      -0.0002894101
       5.3500000000       0.3712801982      -0.0297827178    -844.1839912209       0.0294871854    -843.8127110227      -0.0002955325
       5.4000000000       0.3759845273      -0.0250783887    -844.1887009861       0.0247774201    -843.8127164588      -0.0003009686
       5.4500000000       0.3808735910      -0.0201893250    -844.1935947685       0.0198836378    -843.8127211775      -0.0003056872
       5.5000000000       0.3859327471      -0.0151301689    -844.1986587537       0.0148196526    -843.8127260066      -0.0003105164
       5.5500000000       0.3911473826      -0.0099155334    -844.2038783150       0.0096000913    -843.8127309323      -0.0003154421
       5.6000000000       0.3965021744      -0.0045607417    -844.2092381210       0.0042402853    -843.8127359466      -0.0003204564
       5.6500000000       0.4019811277       0.0009182116    -844.2147221811      -0.0012437748    -843.8127410534      -0.0003255632
       5.7000000000       0.4075676806       0.0065047646    -844.2203139300      -0.0068355237    -843.8127462494      -0.0003307591
       5.7500000000       0.4132447744       0.0121818583    -844.2259963002      -0.0125178939    -843.8127515258      -0.0003360356
       5.8000000000       0.4189949220       0.0179320060    -844.2317518024      -0.0182733961    -843.8127568803      -0.0003413901
       5.8500000000       0.4248002979       0.0237373819    -844.2375626119      -0.0240842056    -843.8127623140      -0.0003468237
       5.9000000000       0.4306428319       0.0295799159    -844.2434106509      -0.0299322446    -843.8127678190      -0.0003523287
       5.9500000000       0.4365043058       0.0354413898    -844.2492776686      -0.0357992623    -843.8127733628      -0.0003578725
       6.0000000000       0.4423663789       0.0413034628    -844.2551453377      -0.0416669314    -843.8127789588      -0.0003634686
       6.0500000000       0.4482107184       0.0471478024    -844.2609953328      -0.0475169265    -843.8127846144      -0.0003691242
       6.1000000000       0.4540191044       0.0529561884    -844.2668094897      -0.0533310834    -843.8127903853      -0.0003748950
       6.1500000000       0.4597735030       0.0587105870    -844.2725696332      -0.0590912270    -843.8127961302      -0.0003806400
       6.2000000000       0.4654561515       0.0643932355    -844.2782580361      -0.0647796298    -843.8128018846      -0.0003863943
       6.2500000000       0.4710496063       0.0699866903    -844.2838572544      -0.0703788481    -843.8128076481      -0.0003921578
       6.3000000000       0.4765368508       0.0754739348    -844.2893502713      -0.0758718651    -843.8128134205      -0.0003979303
       6.3500000000       0.4819013701       0.0808384541    -844.2947205756      -0.0812421694    -843.8128192055      -0.0004037153
       6.4000000000       0.4871272439       0.0860643279    -844.2999522377      -0.0864738315    -843.8128249938      -0.0004095036
       6.4500000000       0.4921992043       0.0911362883    -844.3050299779      -0.0915515717    -843.8128307736      -0.0004152834
       6.5000000000       0.4971027033       0.0960397873    -844.3099392367      -0.0964608304    -843.8128365333      -0.0004210431
       6.5500000000       0.5018239701       0.1007610540    -844.3146662414      -0.1011878351    -843.8128422713      -0.0004267811
       6.6000000000       0.5063500854       0.1052871693    -844.3191980621      -0.1057196559    -843.8128479768      -0.0004324865
       6.6500000000       0.5106690248       0.1096061087    -844.3235226684      -0.1100442621    -843.8128536436      -0.0004381534
       6.7000000000       0.5147697016       0.1137067856    -844.3276289735      -0.1141505672    -843.8128592719      -0.0004437816
       6.7500000000       0.5186420352       0.1175791192    -844.3315068923      -0.1180284860    -843.8128648570      -0.0004493668
       6.8000000000       0.5222769782       0.1212140622    -844.3351473720      -0.1216689657    -843.8128703937      -0.0004549035
       6.8500000000       0.5256665419       0.1246036258    -844.3385424298      -0.1250640236    -843.8128758880      -0.0004603977
       6.9000000000       0.5288038475       0.1277409314    -844.3416851819      -0.1282067756    -843.8128813344      -0.0004658441
       6.9500000000       0.5316831438       0.1306202278    -844.3445698660      -0.1310914598    -843.8128867222      -0.0004712320
       7.0000000000       0.5342998131       0.1332368970    -844.3471918611      -0.1337134548    -843.8128920480      -0.0004765578
       7.0500000000       0.5366503907       0.1355874746    -844.3495477026      -0.1360692963    -843.8128973119      -0.0004818217
       7.1000000000       0.5387325729       0.1376696569    -844.3516350824      -0.1381566761    -843.8129025095      -0.0004870193
       7.1500000000       0.5405454674       0.1394825514    -844.3534528593      -0.1399744531    -843.8129073919      -0.0004919017
       7.2000000000       0.5420888640       0.1410259479    -844.3550010670      -0.1415226608    -843.8129122031      -0.0004967128
       7.2500000000       0.5433636613       0.1423007452    -844.3562808158      -0.1428024095    -843.8129171545      -0.0005016643
       7.3000000000       0.5443726436       0.1433097276    -844.3572876147      -0.1438092084    -843.8129149711      -0.0004994809
       7.3500000000       0.5451190026       0.1440560865    -844.3580385201      -0.1445601139    -843.8129195176      -0.0005040273
